Watching PID 2603711 page references grow, output every 0.2 seconds...
Est(s)     RSS(MB)    PSS(MB)    Ref(MB)
0.213       422.29     418.39      24.87
0.428       445.17     441.26      47.74
0.644       451.17     447.26      56.02
0.861       457.09     453.12      67.27
1.082       458.52     454.49      72.49
1.303       458.52     454.49      72.56
1.529       458.52     454.49      72.56
1.754       458.52     454.49      72.56
1.974       458.52     454.49      72.56
2.195       496.20     492.03     114.96
2.416       541.46     537.29     160.23
2.639       707.27     703.10     326.04
2.864       731.89     727.73     350.67
3.090       756.89     752.73     375.67
3.316       781.77     777.60     400.54
3.544       806.89     802.73     425.67
3.775       832.14     827.98     450.92
4.009       857.33     853.17     476.11
4.245       883.02     878.85     501.79
4.478       908.46     904.29     527.23
4.711       934.27     930.10     553.04
4.943       959.89     955.73     578.67
5.178       984.14     979.98     602.92
5.414      1009.14    1004.98     627.92
5.648      1033.52    1029.35     652.29
5.883      1059.27    1055.10     678.04
6.118      1085.05    1080.89     703.88
6.353      1109.77    1105.60     728.59
6.590      1134.89    1130.73     753.72
6.829      1160.39    1156.23     779.22
7.069      1182.77    1178.60     801.59
7.309      1203.46    1199.29     822.28
7.550      1222.64    1218.48     841.47
7.792      1257.79    1253.63     876.62
8.037      1428.86    1424.70    1047.69
8.285      1456.49    1452.32    1075.31
8.533      1484.11    1479.95    1102.94
8.781      1511.61    1507.45    1130.44
9.027      1539.11    1534.95    1157.94
9.273      1566.36    1562.20    1185.19
9.518      1593.11    1588.95    1211.95
9.765      1619.86    1615.70    1238.70
10.012     1647.24    1643.07    1266.07
10.259     1674.74    1670.57    1293.57
10.509     1702.49    1698.32    1321.32
10.758     1730.24    1726.07    1349.07
11.009     1757.61    1753.45    1376.45
11.262     1785.11    1780.95    1403.95
11.517     1812.36    1808.20    1431.20
11.770     1839.86    1835.70    1458.70
12.024     1867.49    1863.32    1486.32
12.277     1895.49    1891.32    1514.32
12.530     1923.74    1919.57    1542.57
12.784     1951.86    1947.70    1570.70
13.040     1978.99    1974.82    1597.82
13.298     2006.86    2002.70    1625.70
13.559     2034.99    2030.82    1653.82
13.820     2062.61    2058.45    1681.45
14.080     2085.24    2081.07    1704.07
14.341     2107.86    2103.70    1726.70
14.602     2130.36    2126.20    1749.20
14.863     2157.36    2153.20    1776.20
15.123     2186.24    2182.07    1805.07
15.383     2214.86    2210.70    1833.70
15.642     2243.74    2239.57    1862.57
15.905     2272.99    2268.82    1891.82
16.171     2302.49    2298.32    1921.32
16.435     2331.74    2327.57    1950.57
16.699     2361.11    2356.95    1979.95
16.963     2390.36    2386.20    2009.20
17.229     2419.86    2415.70    2038.70
17.495     2449.49    2445.32    2068.32
17.761     2478.99    2474.82    2097.82
18.027     2508.49    2504.32    2127.32
18.294     2538.24    2534.07    2157.07
18.563     2601.54    2597.38    2220.38
18.835     2739.87    2735.70    2358.71
19.105     2462.97    2458.81    2134.33
19.363     1982.42    1978.26    1654.21
19.613     2010.42    2006.25    1682.21
19.865     2038.34    2034.18    1710.14
20.117     2066.28    2062.11    1738.07
20.370     2094.47    2090.30    1766.26
20.629     2122.84    2118.67    1794.63
20.899     2152.59    2148.42    1824.38
21.162     2182.21    2178.04    1854.00
21.418     2210.73    2206.57    1882.52
21.675     2238.91    2234.75    1910.71
21.935     2267.08    2262.91    1938.87
22.196     2296.05    2291.89    1967.85
22.457     2324.70    2320.53    1996.49
22.718     2353.30    2349.14    2025.10
22.980     2382.94    2378.77    2054.73
23.242     2411.62    2407.46    2083.41
23.513     2441.60    2437.43    2113.39
23.785     2471.46    2467.30    2143.26
24.073     2501.27    2497.10    2173.06
24.365     2535.78    2531.61    2207.57
24.634     2565.12    2560.95    2236.91
24.902     2594.68    2590.51    2266.47
25.170     2625.36    2621.19    2297.15
25.440     2655.33    2651.16    2327.12
25.711     2684.70    2680.53    2356.49
25.983     2714.69    2710.52    2386.48
26.252     2744.30    2740.14    2416.10
26.524     2774.34    2770.17    2446.13
26.798     2805.32    2801.16    2477.11
27.072     2836.13    2831.96    2507.92
27.348     2866.47    2862.30    2538.26
27.625     2897.07    2892.90    2568.86
27.902     2927.07    2922.91    2598.87
28.181     2957.69    2953.53    2629.48
28.460     2988.56    2984.39    2660.35
28.738     3019.43    3015.26    2691.22
29.016     3049.92    3045.76    2721.71
29.281     1935.85    1931.69    1607.64
29.534     1964.78    1960.62    1636.57
29.788     1992.14    1987.98    1663.94
30.044     2019.94    2015.77    1691.73
30.301     2050.28    2046.12    1722.07
30.557     2077.34    2073.17    1749.13
30.814     2105.44    2101.28    1777.23
31.072     2135.79    2131.63    1807.59
31.328     2161.79    2157.63    1833.59
31.584     2191.17    2187.00    1862.96
31.841     2220.06    2215.89    1891.85
32.100     2246.93    2242.76    1918.72
32.359     2276.95    2272.79    1948.75
32.618     2306.07    2301.91    1977.87
32.881     2334.62    2330.46    2006.41
33.147     2363.40    2359.23    2035.19
33.411     2394.09    2389.93    2065.89
33.675     2423.16    2419.00    2094.95
33.941     2450.84    2446.67    2122.63
34.207     2480.16    2475.99    2151.95
34.471     2511.43    2507.27    2183.23
34.736     2538.57    2534.41    2210.36
35.004     2567.34    2563.18    2239.14
35.273     2597.34    2593.05    2269.38
35.542     2628.58    2624.29    2300.61
35.812     2656.58    2652.29    2328.61
36.084     2684.51    2680.22    2356.54
36.355     2714.59    2710.23    2386.63
36.625     2745.81    2741.42    2417.86
36.896     2775.89    2771.50    2447.94
37.168     2803.69    2799.30    2475.73
37.441     2832.62    2828.23    2504.66
37.715     2863.10    2858.71    2535.17
38.014     2895.41    2891.02    2567.50
38.289     2925.66    2921.27    2597.75
38.589     2959.41    2955.06    2633.05
38.913     2995.48    2991.13    2669.12
39.237     3033.39    3029.03    2707.03
39.557     3065.88    3061.53    2739.52
39.858     3097.19    3092.83    2770.83
40.143     3128.41    3124.06    2802.05
40.429     3159.69    3155.34    2833.33
40.715     3190.78    3186.43    2864.42
40.997     3222.02    3217.67    2895.66
41.280     3253.23    3248.88    2926.87
41.566     3284.45    3280.10    2958.09
41.852     3315.63    3311.28    2989.27
42.136     3346.82    3342.46    3020.46
42.423     3378.01    3373.66    3051.65
42.706     3409.23    3404.88    3082.87
42.991     3440.46    3436.11    3114.11
43.279     3471.67    3467.32    3145.31
43.570     3502.95    3498.60    3176.59
43.862     3534.20    3529.84    3207.84
44.153     3565.53    3561.18    3239.17
44.445     3597.20    3592.85    3270.84
44.731     3628.60    3624.25    3302.24
45.019     3659.46    3655.11    3333.10
45.319     3696.07    3691.72    3369.71
45.621     3728.75    3724.40    3402.39
45.916     3760.07    3755.72    3433.71
46.211     3791.32    3786.96    3464.96
46.511     3823.00    3818.65    3496.64
46.815     3857.07    3852.72    3530.71
47.120     3892.66    3888.31    3566.30
47.420     3924.00    3919.64    3597.64
47.719     3955.69    3951.34    3629.33
48.017     3989.88    3985.53    3663.52
48.318     4025.37    4021.02    3699.01
48.620     4056.83    4052.67    3730.53
48.921     4088.83    4084.66    3762.53
49.225     4126.52    4122.35    3800.21
49.542     4158.75    4154.59    3832.45
49.858     4196.82    4192.65    3870.52
50.170     4229.06    4224.90    3902.76
50.482     4264.47    4260.31    3938.17
50.794     4298.79    4294.63    3972.49
51.106     4332.25    4328.08    4005.95
51.414     4368.99    4364.83    4042.69
51.720     4400.91    4396.75    4074.61
52.033     4438.91    4434.74    4112.61
52.355     4471.48    4467.32    4145.18
52.682     4509.65    4505.49    4183.35
53.007     4545.32    4541.15    4219.02
53.327     4580.27    4576.10    4253.97
53.645     4616.62    4612.46    4290.32
53.965     4650.90    4646.74    4324.60
54.286     4688.94    4684.77    4362.64
54.606     4721.64    4717.48    4395.34
54.962     4762.56    4758.40    4436.26
55.337     4803.90    4799.74    4477.60
55.681     4843.24    4839.08    4516.94
55.999     4877.10    4872.94    4550.80
56.323     4915.24    4911.07    4588.94
56.651     4949.72    4945.55    4623.42
56.976     4986.42    4982.26    4660.12
57.307     5024.60    5020.44    4698.30
57.637     5059.54    5055.37    4733.24
57.962     5095.63    5091.47    4769.33
58.313     5137.77    5133.61    4811.47
58.695     5179.58    5175.42    4853.28
59.070     5221.00    5216.84    4894.70
59.425     5259.41    5255.24    4933.11
59.764     5291.67    5287.50    4965.37
60.117     8133.41    8129.24    7807.11
60.504    10681.50   10677.34   10355.21
60.920    13175.92   13171.76   12849.63
61.349    14198.84   14194.67   13872.55
61.787    14437.84   14433.67   14111.55
62.212    14435.71   14431.54   14109.42
62.618    14480.89   14476.73   14154.61
63.031    14527.14   14522.98   14200.86
63.448    14573.64   14569.48   14247.36
63.867    14620.52   14616.35   14294.23
64.282    14666.27   14662.10   14339.98
64.693    14712.39   14708.23   14386.11
65.104    14757.52   14753.35   14431.23
65.518    14804.29   14800.13   14478.01
65.940    14851.39   14847.23   14525.11
66.362    14898.39   14894.23   14572.11
66.789    14946.27   14942.10   14619.98
67.212    14993.02   14988.85   14666.73
67.627    15039.02   15034.85   14712.73
68.044    15085.39   15081.23   14759.11
68.468    15133.14   15128.98   14806.86
68.900    15181.27   15177.10   14854.98
69.331    15229.14   15224.98   14902.86
69.762    15277.14   15272.98   14950.86
70.192    15325.14   15320.98   14998.86
70.620    15372.76   15368.60   15046.48
71.044    15419.89   15415.73   15093.61
71.482    15470.27   15466.10   15143.98
71.933    15519.52   15515.35   15193.23
72.376    15568.24   15564.08   15241.96
72.817    15616.77   15612.60   15290.48
73.254    15664.89   15660.73   15338.61
73.685    15712.14   15707.98   15385.86
74.156    15763.82   15759.66   15437.54
74.583    15811.39   15807.23   15485.11
75.015    15859.39   15855.23   15533.11
75.457    15908.27   15904.10   15581.98
75.902    15957.77   15953.60   15631.48
76.395    16016.89   16012.73   15690.61
76.931    16075.27   16071.10   15748.98
77.444    16131.39   16127.23   15805.11
77.913    16179.64   16175.48   15853.36
78.369    16231.52   16227.35   15905.23
78.832    16281.64   16277.48   15955.36
79.290    16275.14   16270.98   15948.86
79.749    16357.82   16353.66   16031.54
80.192    16262.51   16258.34   15936.22
80.616    16308.73   16304.57   15982.45
81.044    16224.41   16220.24   15898.12
81.489    16295.11   16290.94   15968.82
81.950    15782.31   15778.14   15456.05
82.421    14684.21   14680.05   14357.97
82.955    14296.27   14292.10   13970.05
83.481    13769.54   13765.37   13443.32
83.940    13846.35   13842.19   13520.14
84.385    14001.86   13997.70   13675.66
84.822    14084.77   14080.61   13758.57
85.349    13932.17   13928.01   13605.98
85.879    13263.11   13258.94   12936.92
86.308    13287.61   13283.45   12961.42
86.722    13332.91   13328.75   13006.72
87.135    13377.27   13373.11   13051.08
87.586    13429.12   13424.96   13102.93
88.045    13475.95   13471.79   13149.76
88.507    13528.55   13524.39   13202.36
88.969    13575.28   13571.12   13249.09
89.391    13621.04   13616.87   13294.85
89.810    13665.30   13661.14   13339.11
90.223    13710.34   13706.18   13384.15
90.641    13755.75   13751.58   13429.56
91.092    13807.15   13802.98   13480.96
91.549    13853.36   13849.19   13527.16
91.980    13899.65   13895.48   13573.46
92.407    13945.58   13941.41   13619.39
92.837    13991.36   13987.20   13665.17
93.263    14037.62   14033.45   13711.43
93.692    14083.51   14079.35   13757.32
94.137    14133.42   14129.26   13807.23
94.579    14205.69   14201.53   13879.50
95.011    14251.70   14247.54   13925.51
95.448    14275.95   14271.78   13949.76
95.883    14314.34   14310.17   13988.14
96.310    14360.29   14356.12   14034.09
96.737    14406.02   14401.85   14079.83
97.180    14454.75   14450.58   14128.55
97.629    14502.68   14498.51   14176.48
98.072    14550.15   14545.99   14223.96
98.513    14597.49   14593.32   14271.30
98.953    14644.10   14639.81   14317.91
99.389    14690.62   14686.34   14364.43
99.789    10152.32   10148.03    9826.13
100.154   10190.78   10186.39    9864.59
100.529   10230.11   10225.72    9903.92
100.911   10271.18   10266.83    9945.00
101.293   10311.42   10307.07    9985.24
101.675   10352.51   10348.16   10026.33
102.058   10392.68   10388.33   10066.50
102.446   10434.64   10430.29   10108.46
102.834   10475.36   10471.01   10149.18
103.220   10515.72   10511.37   10189.54
103.619   10559.57   10555.22   10233.39
104.021   10600.75   10596.40   10274.57
104.422   10644.79   10640.43   10318.61
104.829   10687.52   10683.17   10361.34
105.233   10730.84   10726.49   10404.66
105.639   10773.94   10769.59   10447.76
106.042   10817.59   10813.24   10491.41
106.441   10859.97   10855.62   10533.79
106.843   10902.69   10898.34   10576.51
107.250   10946.15   10941.80   10619.97
107.664   10989.97   10985.62   10663.79
108.081   11034.77   11030.42   10708.59
108.498   11079.37   11075.02   10753.19
108.923   11124.92   11120.57   10798.74
109.345   11169.37   11165.02   10843.19
109.751   11198.24   11193.89   10872.06
110.122    8940.96    8936.61    8614.78
110.467    8977.18    8972.83    8651.00
110.811    9013.54    9009.19    8687.36
111.157    9049.79    9045.62    8723.61
111.504    9085.93    9081.77    8759.75
111.862    9125.55    9121.39    8799.37
112.217    9162.64    9158.48    8836.46
112.560    9198.87    9194.70    8872.69
112.911    9236.81    9232.65    8910.63
113.262    9273.86    9269.69    8947.68
113.607    9310.14    9305.98    8983.96
113.964    9347.85    9343.68    9021.67
114.332    9385.60    9381.43    9059.42
114.696    9424.51    9420.34    9098.33
115.055    9462.08    9457.92    9135.90
115.414    9499.81    9495.64    9173.63
115.770    9537.73    9533.57    9211.55
116.123    9575.08    9570.91    9248.90
116.475    9612.24    9608.07    9286.06
116.830    9649.67    9645.50    9323.49
117.199    9688.91    9684.74    9362.73
117.575    9728.12    9723.96    9401.94
117.948    9766.94    9762.77    9440.76
118.321    9806.98    9802.82    9480.80
118.692    9847.04    9842.87    9520.86
119.056    9886.51    9882.34    9560.33
119.416    9924.93    9920.76    9598.75
119.782    9964.76    9960.60    9638.58
120.164   10005.88   10001.71    9679.70
120.556   10047.89   10043.73    9721.71
120.942   10088.64   10084.48    9762.46
121.322   10129.30   10125.14    9803.12
121.698   10170.37   10166.20    9844.19
122.091   10214.33   10210.16    9888.15
122.482   10255.09   10250.93    9928.91
122.851   10294.53   10290.37    9968.35
123.219   10333.59   10329.42   10007.41
123.587   10373.07   10368.91   10046.89
123.966   10413.62   10409.45   10087.44
124.355   10455.78   10451.62   10129.60
124.740   10498.14   10493.98   10171.96
125.123   10538.52   10534.36   10212.34
125.502   10579.39   10575.23   10253.21
125.880   10619.27   10615.11   10293.09
126.254   10515.18   10511.02   10189.00
126.624   10555.69   10551.52   10229.51
126.998   10593.38   10589.22   10267.20
127.373   10633.57   10629.41   10307.39
127.753   10673.93   10669.76   10347.75
128.184   10571.38   10567.22   10245.20
128.668   10624.25   10620.08   10298.07
129.200   10677.45   10673.29   10351.27
129.779   10738.98   10734.82   10412.80
130.391   10801.70   10797.53   10475.52
130.980   10870.15   10865.98   10543.97
131.487   10926.29   10922.13   10600.11
131.973   10976.91   10972.75   10650.73
132.466   11029.27   11025.10   10703.09
132.968   11082.04   11077.87   10755.86
133.479   11136.83   11132.66   10810.65
133.992   11192.11   11187.94   10865.93
134.499   11246.93   11242.76   10920.75
135.013   11302.49   11298.32   10976.31
135.545   11358.69   11354.52   11032.51
136.072   11414.90   11410.73   11088.72
136.588   11470.66   11466.50   11144.48
137.110   11526.87   11522.71   11200.69
137.631   11582.88   11578.71   11256.70
138.145   11637.38   11633.22   11311.20
138.659   11692.85   11688.69   11366.67
139.178   11747.61   11743.45   11421.43
139.705   11804.98   11800.81   11478.80
140.228   11859.89   11855.72   11533.71
140.744   11915.20   11911.04   11589.02
141.251   11969.22   11965.06   11643.04
141.763   12022.31   12018.15   11696.13
142.293   12077.97   12073.80   11751.79
142.822   12134.64   12130.48   11808.46
143.345   12189.93   12185.76   11863.75
143.868   12246.36   12242.20   11920.18
144.386   12300.86   12296.70   11974.68
144.923   12358.72   12354.56   12032.54
145.489   12418.89   12414.73   12092.71
146.053   12477.11   12472.95   12150.93
146.595   12534.31   12530.14   12208.13
147.144   12592.66   12588.50   12266.48
147.688   12649.53   12645.36   12323.35
148.215   12706.81   12702.64   12380.63
148.749   12761.55   12757.38   12435.37
149.283   12818.02   12813.85   12491.84
149.818   12874.32   12870.16   12548.14
150.355   12930.47   12926.31   12604.29
150.891   12988.18   12984.01   12662.00
151.423   13046.07   13041.91   12719.89
152.045   13107.34   13103.18   12781.16
152.728   13182.52   13178.35   12856.34
153.330   13250.41   13246.24   12924.23
153.964   13314.02   13309.85   12987.84
154.674   13390.23   13386.07   13064.05
155.293   13462.55   13458.38   13136.37
155.829   13519.91   13515.74   13193.73
156.379   13578.89   13574.73   13252.71
156.938   13638.54   13634.37   13312.36
157.494   13698.73   13694.56   13372.55
158.047   13758.15   13753.98   13431.97
158.637   13821.62   13817.46   13495.45
159.229   13884.77   13880.60   13558.59
159.792   13944.73   13940.56   13618.55
160.402   14009.37   14005.20   13683.19
161.002   14075.62   14071.45   13749.44
161.555   14135.26   14131.10   13809.09
162.105   14193.83   14189.67   13867.68
162.669   14254.58   14250.29   13928.43
163.246   14316.59   14312.24   13990.44
163.820   14376.59   14372.19   14050.48
164.389   14437.43   14433.04   14111.33
164.965   14499.04   14494.69   14172.94
165.549   14558.25   14553.90   14232.15
166.134   14464.50   14460.15   14138.40
166.726   14236.36   14232.00   13910.25
167.309   13722.94   13718.59   13396.84
167.822   13048.07   13043.71   12721.96
168.279   12365.65   12361.30   12039.55
168.735   10976.45   10972.05   10650.35
169.241   10570.31   10565.92   10244.23
169.795   10437.32   10432.95   10111.36
170.342    9913.24    9905.84    9714.55
170.763     557.11     557.10     557.05
ERROR: can't open /proc/2603711/smaps: No such file or directory at ../wss.pl line 226.
